ALT TEMP PRESS  [H]  [H2]  [He]  [CH4]  [C2H2]  [C2H4]  [C2H6]  [CH3C2H] [C3H8]  [C4H2]  [C4H10]
-176.1 855.1 1.582e+07 1.018e+05 1.190e+20 1.470e+19 2.941e+17 -1.996e+08 -3.465e+07 9.392e+12 -8.890e+04 1.362e+12 -1.667e+07 7.279e+10
-130.9 604.5 1.344e+07 1.232e+05 1.430e+20 1.767e+19 3.535e+17 -2.065e+08 -3.469e+07 1.208e+13 2.881e+05 1.751e+12 -1.699e+07 9.373e+10
-98.2 446.4 1.106e+07 1.387e+05 1.594e+20 1.969e+19 3.939e+17 -1.770e+08 -2.759e+07 1.471e+13 9.506e+05 2.135e+12 -1.410e+07 1.144e+11
-73.5 346.6 8.680e+06 1.423e+05 1.611e+20 1.991e+19 3.982e+17 -9.568e+07 -1.054e+07 1.684e+13 1.946e+06 2.446e+12 -6.684e+06 1.312e+11
-53.9 283.6 6.300e+06 1.296e+05 1.429e+20 1.766e+19 3.531e+17 4.469e+07 1.765e+07 1.800e+13 3.260e+06 2.616e+12 5.859e+06 1.406e+11
-37.4 242.6 4.039e+06 1.094e+05 1.071e+20 1.324e+19 2.646e+17 2.568e+08 5.588e+07 1.799e+13 4.838e+06 2.620e+12 2.322e+07 1.412e+11
-23.3 209.3 2.557e+06 2.032e+05 7.859e+19 9.713e+18 1.941e+17 4.951e+08 8.854e+07 1.721e+13 6.747e+06 2.517e+12 3.626e+07 1.363e+11
-11.1 182.4 1.596e+06 4.103e+05 5.629e+19 6.955e+18 1.389e+17 9.788e+08 1.302e+08 1.590e+13 7.987e+06 2.342e+12 4.454e+07 1.273e+11
-0.4 160.3 1.018e+06 8.203e+05 4.083e+19 5.045e+18 1.008e+17 3.897e+09 3.365e+08 1.445e+13 8.728e+06 2.144e+12 5.513e+07 1.169e+11
9.1 143.5 6.362e+05 1.461e+06 2.852e+19 3.522e+18 7.030e+16 1.383e+10 8.438e+08 1.278e+13 1.126e+07 1.912e+12 8.052e+07 1.047e+11
17.7 130.5 4.043e+05 2.189e+06 1.993e+19 2.460e+18 4.906e+16 3.701e+10 1.416e+09 1.122e+13 1.845e+07 1.689e+12 1.636e+08 9.298e+10
25.6 120.9 2.537e+05 2.594e+06 1.350e+19 1.665e+18 3.317e+16 6.664e+10 1.396e+09 9.715e+12 3.706e+07 1.473e+12 4.268e+08 8.178e+10
32.9 113.3 1.608e+05 2.667e+06 9.131e+18 1.126e+18 2.240e+16 8.727e+10 7.227e+08 8.460e+12 7.855e+07 1.295e+12 1.040e+09 7.305e+10
39.9 108.4 1.007e+05 2.595e+06 5.979e+18 7.372e+17 1.464e+16 7.935e+10 3.099e+08 6.632e+12 9.899e+07 1.025e+12 1.250e+09 5.887e+10
46.8 115.1 6.405e+04 2.640e+06 3.579e+18 4.411e+17 8.749e+15 5.223e+10 4.381e+08 4.330e+12 8.020e+07 6.758e+11 8.395e+08 3.939e+10
54.5 128.7 4.013e+04 2.924e+06 2.007e+18 2.474e+17 4.898e+15 3.151e+10 8.391e+08 2.728e+12 5.352e+07 4.331e+11 4.022e+08 2.591e+10
62.9 140.3 2.557e+04 2.621e+06 1.173e+18 1.445e+17 2.857e+15 2.045e+10 9.448e+08 1.845e+12 3.970e+07 2.996e+11 2.137e+08 1.863e+10
71.9 146.8 1.598e+04 2.395e+06 7.007e+17 8.622e+16 1.700e+15 1.584e+10 9.079e+08 1.323e+12 3.638e+07 2.205e+11 1.582e+08 1.432e+10
81.2 150.8 1.016e+04 2.389e+06 4.338e+17 5.332e+16 1.047e+15 1.514e+10 9.327e+08 9.940e+11 3.790e+07 1.697e+11 1.428e+08 1.145e+10
90.7 153.6 6.379e+03 2.529e+06 2.673e+17 3.280e+16 6.413e+14 1.635e+10 1.017e+09 7.596e+11 4.189e+07 1.325e+11 1.364e+08 9.222e+09
100.4 156.6 4.051e+03 2.771e+06 1.665e+17 2.040e+16 3.963e+14 1.891e+10 1.120e+09 5.869e+11 4.737e+07 1.040e+11 1.303e+08 7.360e+09
110.4 160.9 2.535e+03 3.094e+06 1.015e+17 1.240e+16 2.388e+14 2.243e+10 1.193e+09 4.510e+11 5.280e+07 8.056e+10 1.190e+08 5.700e+09
120.4 161.1 1.612e+03 3.732e+06 6.448e+16 7.853e+15 1.496e+14 2.787e+10 1.229e+09 3.581e+11 5.867e+07 6.356e+10 1.042e+08 4.378e+09
130.5 161.4 1.008e+03 4.772e+06 4.025e+16 4.880e+15 9.153e+13 3.422e+10 1.196e+09 2.825e+11 6.301e+07 4.895e+10 8.569e+07 3.175e+09
140.7 161.7 6.410e+02 6.610e+06 2.557e+16 3.082e+15 5.669e+13 4.085e+10 1.105e+09 2.219e+11 6.591e+07 3.668e+10 6.935e+07 2.159e+09
150.8 162.2 4.010e+02 9.508e+06 1.597e+16 1.909e+15 3.418e+13 4.672e+10 9.835e+08 1.709e+11 6.815e+07 2.631e+10 5.832e+07 1.349e+09
161.0 162.7 2.558e+02 1.415e+07 1.016e+16 1.203e+15 2.082e+13 5.064e+10 8.253e+08 1.292e+11 6.985e+07 1.813e+10 5.348e+07 7.944e+08
171.2 163.3 1.601e+02 2.068e+07 6.346e+15 7.414e+14 1.224e+13 5.221e+10 6.405e+08 9.444e+10 7.062e+07 1.177e+10 5.119e+07 4.277e+08
181.4 164.2 1.016e+02 2.970e+07 4.015e+15 4.613e+14 7.175e+12 5.061e+10 4.464e+08 6.720e+10 7.168e+07 7.338e+09 5.080e+07 2.213e+08
191.7 165.2 6.396e+01 3.992e+07 2.517e+15 2.830e+14 4.064e+12 4.635e+10 2.749e+08 4.619e+10 7.849e+07 4.307e+09 5.415e+07 1.062e+08
202.1 166.5 4.038e+01 4.374e+07 1.581e+15 1.729e+14 2.239e+12 3.988e+10 1.550e+08 3.096e+10 1.051e+08 2.422e+09 7.685e+07 4.811e+07
212.6 168.2 2.551e+01 3.786e+07 9.926e+14 1.047e+14 1.184e+12 3.210e+10 9.942e+07 2.026e+10 1.664e+08 1.317e+09 1.343e+08 2.032e+07
223.2 170.2 1.605e+01 3.750e+07 6.198e+14 6.245e+13 5.874e+11 2.414e+10 1.098e+08 1.286e+10 2.729e+08 7.024e+08 1.956e+08 7.747e+06
233.9 172.9 1.016e+01 5.222e+07 3.883e+14 3.698e+13 2.727e+11 1.693e+10 2.034e+08 7.895e+09 4.233e+08 3.832e+08 2.272e+08 2.784e+06
244.9 176.3 6.383e+00 1.577e+08 2.408e+14 2.132e+13 1.100e+11 1.086e+10 4.182e+08 4.557e+09 5.882e+08 2.110e+08 2.337e+08 8.855e+05
256.0 180.8 4.045e+00 7.382e+08 1.499e+14 1.216e+13 3.869e+10 5.961e+09 4.865e+08 2.300e+09 6.830e+08 1.086e+08 1.822e+08 2.521e+05
267.5 186.6 2.541e+00 2.810e+09 9.196e+13 6.675e+12 1.125e+10 2.484e+09 2.319e+08 7.853e+08 5.633e+08 3.630e+07 5.271e+07 3.758e+04
279.4 194.4 1.609e+00 5.426e+09 5.636e+13 3.588e+12 3.230e+09 7.421e+08 6.982e+07 1.757e+08 2.708e+08 7.386e+06 7.877e+06 4.029e+03
291.9 204.9 1.014e+00 6.562e+09 3.399e+13 1.843e+12 8.002e+08 1.564e+08 1.774e+07 2.596e+07 7.556e+07 8.961e+05 7.722e+05 2.376e+02
305.2 219.8 6.425e-01 6.426e+09 2.025e+13 9.150e+11 1.870e+08 2.782e+07 4.043e+06 3.498e+06 1.357e+07 9.270e+04 6.987e+04 1.528e+01
319.6 241.5 4.006e-01 5.625e+09 1.159e+13 4.165e+11 3.047e+07 2.746e+06 5.296e+05 2.344e+05 9.936e+05 3.418e+03 1.957e+03 2.612e-01
335.7 275.2 2.557e-01 4.479e+09 6.540e+12 1.855e+11 5.324e+06 3.065e+05 6.413e+04 2.040e+04 7.346e+04 1.801e+02 8.388e+01 8.538e-03
354.5 328.7 1.600e-01 3.297e+09 3.450e+12 7.323e+10 5.664e+05 1.584e+04 3.266e+03 7.491e+02 1.780e+03 3.002e+00 1.047e+00 7.366e-05
377.0 390.0 1.016e-01 2.386e+09 1.856e+12 2.922e+10 5.876e+04 7.237e+02 1.342e+02 2.358e+01 2.914e+01 3.266e-02 7.507e-03 2.905e-07
403.4 454.3 6.370e-02 1.729e+09 1.003e+12 1.116e+10 4.149e+03 1.872e+01 2.943e+00 4.162e-01 2.516e-01 2.070e-04 3.342e-05 8.114e-10
433.9 519.2 4.046e-02 1.265e+09 5.587e+11 4.401e+09 2.886e+02 3.788e-01 4.645e-02 5.014e-03 9.274e-04 4.579e-07 3.714e-08 3.484e-13
468.4 582.2 2.550e-02 9.322e+08 3.145e+11 1.695e+09 1.745e+01 7.489e-03 7.461e-04 6.606e-05 5.027e-06 1.766e-09 8.956e-11 4.520e-16
506.7 641.3 1.606e-02 6.953e+08 1.800e+11 6.485e+08 6.461e-01 4.211e-05 2.837e-06 1.729e-07 2.128e-09 3.634e-13 6.572e-15 8.405e-21
548.5 694.7 1.017e-02 5.247e+08 1.052e+11 2.539e+08 3.540e-02 6.732e-07 3.591e-08 1.759e-09 7.633e-12 8.720e-16 8.859e-18 5.288e-24
593.5 741.5 6.381e-03 3.997e+08 6.184e+10 9.620e+07 8.616e-04 1.555e-09 5.112e-11 1.565e-12 6.696e-16 3.052e-20 8.187e-23 8.273e-30
641.3 781.4 4.050e-03 3.080e+08 3.720e+10 3.822e+07 4.313e-05 1.978e-11 5.000e-13 1.187e-14 1.491e-18 4.198e-23 5.596e-26 2.227e-33
691.3 814.7 2.537e-03 2.387e+08 2.231e+10 1.442e+07 8.078e-07 2.651e-14 3.905e-16 5.442e-18 4.939e-23 4.865e-28 1.399e-31 0.000e+00
743.1 841.8 1.611e-03 1.869e+08 1.367e+10 5.760e+06 3.585e-08 2.549e-16 2.792e-18 2.905e-20 6.384e-26 3.578e-31 4.524e-35 0.000e+00
796.6 863.6 1.009e-03 1.467e+08 8.317e+09 2.169e+06 5.961e-10 2.673e-19 1.656e-21 9.829e-24 1.325e-30 2.391e-36 0.000e+00 0.000e+00
851.2 880.9 6.433e-04 1.143e+08 5.174e+09 8.724e+05 2.199e-11 1.494e-21 6.280e-24 2.578e-26 5.315e-34 4.431e-40 0.000e+00 0.000e+00
906.8 894.5 4.063e-04 8.914e+07 3.200e+09 3.410e+05 6.797e-13 6.698e-24 1.899e-26 5.370e-29 1.664e-37 6.364e-44 0.000e+00 0.000e+00
963.2 905.1 2.526e-04 6.946e+07 1.952e+09 1.244e+05 6.898e-15 2.571e-27 3.701e-30 5.344e-33 5.922e-43 5.795e-50 0.000e+00 0.000e+00
1020.1 913.3 1.607e-04 5.456e+07 1.219e+09 4.987e+04 2.778e-16 2.109e-29 2.244e-32 2.362e-35 6.044e-46 3.293e-53 0.000e+00 0.000e+00
1077.5 919.6 1.013e-04 4.279e+07 7.549e+08 1.919e+04 5.442e-18 3.000e-32 1.871e-35 1.122e-38 1.988e-50 3.680e-58 0.000e+00 0.000e+00
1135.2 924.5 6.381e-05 3.355e+07 4.664e+08 7.340e+03 1.100e-19 4.992e-35 1.884e-38 6.651e-42 9.655e-55 6.507e-63 0.000e+00 0.000e+00
1193.2 928.2 4.024e-05 2.631e+07 2.877e+08 2.802e+03 2.315e-21 9.365e-38 2.176e-41 4.613e-45 6.021e-59 1.535e-67 0.000e+00 0.000e+00
1251.4 931.0 2.539e-05 2.060e+07 1.769e+08 1.064e+03 4.920e-23 1.831e-40 2.640e-44 3.387e-48 4.134e-63 4.052e-72 0.000e+00 0.000e+00
1309.8 933.2 1.603e-05 1.609e+07 1.083e+08 3.997e+02 1.016e-24 3.464e-43 3.098e-47 2.404e-51 2.744e-67 1.034e-76 0.000e+00 0.000e+00
1368.3 934.8 1.011e-05 1.254e+07 6.584e+07 1.482e+02 1.991e-26 6.025e-46 3.321e-50 1.548e-54 1.600e-71 2.288e-81 0.000e+00 0.000e+00
1426.9 936.1 6.383e-06 9.723e+06 3.967e+07 5.396e+01 3.607e-28 9.161e-49 3.075e-53 8.508e-58 7.487e-76 3.966e-86 0.000e+00 0.000e+00
1485.5 937.0 4.028e-06 7.501e+06 2.364e+07 1.920e+01 5.905e-30 1.163e-51 2.338e-56 3.770e-61 2.597e-80 4.917e-91 0.000e+00 0.000e+00
1544.2 937.7 2.890e-06 6.197e+06 1.612e+07 8.998e+00 2.831e-31 8.389e-54 1.152e-58 1.268e-63 1.317e-83 1.160e-94 0.000e+00 0.000e+00
1602.9 938.3 2.089e-06 5.121e+06 1.100e+07 4.219e+00 1.361e-32 6.082e-56 5.712e-61 4.287e-66 6.725e-87 2.759e-98 0.000e+00 0.000e+00
1661.7 938.7 1.522e-06 4.233e+06 7.511e+06 1.980e+00 6.568e-34 4.435e-58 2.849e-63 1.460e-68 3.466e-90 6.626e-102 0.000e+00 0.000e+00
1720.5 939.0 1.119e-06 3.500e+06 5.130e+06 9.302e-01 3.182e-35 3.254e-60 1.430e-65 5.007e-71 1.804e-93 1.609e-105 0.000e+00 0.000e+00
1779.3 939.3 8.299e-07 2.894e+06 3.506e+06 4.374e-01 1.548e-36 2.405e-62 7.236e-68 1.731e-73 9.491e-97 3.953e-109 0.000e+00 0.000e+00
1838.1 939.4 6.214e-07 2.394e+06 2.397e+06 2.059e-01 7.565e-38 1.789e-64 3.689e-70 6.033e-76 5.048e-100 9.829e-113 0.000e+00 0.000e+00
1896.9 939.6 4.697e-07 1.981e+06 1.640e+06 9.707e-02 3.714e-39 1.342e-66 1.896e-72 2.121e-78 2.716e-103 2.475e-116 0.000e+00 0.000e+00
1955.7 939.7 3.584e-07 1.640e+06 1.123e+06 4.580e-02 1.832e-40 1.014e-68 9.823e-75 7.524e-81 1.478e-106 6.313e-120 0.000e+00 0.000e+00
2014.6 939.8 2.759e-07 1.358e+06 7.690e+05 2.164e-02 9.077e-42 7.716e-71 5.132e-77 2.693e-83 8.142e-110 1.631e-123 0.000e+00 0.000e+00
2073.4 939.8 2.143e-07 1.124e+06 5.271e+05 1.024e-02 4.520e-43 5.921e-73 2.704e-79 9.723e-86 4.539e-113 4.272e-127 0.000e+00 0.000e+00
2132.3 939.9 1.678e-07 9.314e+05 3.615e+05 4.847e-03 2.262e-44 4.579e-75 1.437e-81 3.543e-88 2.561e-116 1.134e-130 0.000e+00 0.000e+00
2191.1 939.9 1.323e-07 7.718e+05 2.480e+05 2.298e-03 1.137e-45 3.570e-77 7.701e-84 1.303e-90 1.463e-119 3.050e-134 0.000e+00 0.000e+00
2250.0 939.9 1.051e-07 6.398e+05 1.703e+05 1.091e-03 5.747e-47 2.805e-79 4.163e-86 4.837e-93 8.462e-123 8.316e-138 0.000e+00 0.000e+00
2308.8 939.9 8.403e-08 5.305e+05 1.170e+05 5.187e-04 2.918e-48 2.222e-81 2.270e-88 1.812e-95 4.954e-126 2.298e-141 0.000e+00 0.000e+00
2367.7 940.0 6.755e-08 4.401e+05 8.045e+04 2.468e-04 1.489e-49 1.774e-83 1.248e-90 6.852e-98 2.936e-129 6.439e-145 0.000e+00 0.000e+00
2426.5 940.0 5.457e-08 3.651e+05 5.534e+04 1.176e-04 7.638e-51 1.428e-85 6.925e-93 2.615e-100 1.762e-132 1.828e-148 0.000e+00 0.000e+00
2485.4 940.0 4.427e-08 3.030e+05 3.810e+04 5.611e-05 3.937e-52 1.159e-87 3.875e-95 1.007e-102 1.070e-135 5.263e-152 0.000e+00 0.000e+00
2544.2 940.0 3.606e-08 2.516e+05 2.624e+04 2.680e-05 2.039e-53 9.477e-90 2.187e-97 3.915e-105 6.582e-139 1.536e-155 0.000e+00 0.000e+00
2603.1 940.0 2.946e-08 2.090e+05 1.808e+04 1.282e-05 1.061e-54 7.813e-92 1.245e-99 1.536e-107 4.098e-142 4.541e-159 0.000e+00 0.000e+00
2661.9 940.0 2.415e-08 1.736e+05 1.247e+04 6.138e-06 5.550e-56 6.493e-94 7.148e-102 6.082e-110 2.583e-145 1.361e-162 0.000e+00 0.000e+00
2720.8 940.0 1.984e-08 1.443e+05 8.606e+03 2.943e-06 2.917e-57 5.439e-96 4.139e-104 2.430e-112 1.648e-148 4.136e-166 0.000e+00 0.000e+00
2779.6 940.0 1.633e-08 1.199e+05 5.943e+03 1.413e-06 1.541e-58 4.592e-98 2.418e-106 9.801e-115 1.064e-151 1.273e-169 0.000e+00 0.000e+00
2838.5 940.0 1.347e-08 9.971e+04 4.106e+03 6.789e-07 8.178e-60 3.908e-100 1.424e-108 3.989e-117 6.958e-155 3.974e-173 0.000e+00 0.000e+00
2897.4 940.0 1.113e-08 8.293e+04 2.838e+03 3.267e-07 4.362e-61 3.352e-102 8.461e-111 1.638e-119 4.605e-158 1.257e-176 0.000e+00 0.000e+00
2956.2 940.0 9.210e-09 6.900e+04 1.964e+03 1.574e-07 2.338e-62 2.898e-104 5.069e-113 6.791e-122 3.085e-161 4.029e-180 0.000e+00 0.000e+00
3015.1 940.0 7.629e-09 5.743e+04 1.359e+03 7.591e-08 1.259e-63 2.526e-106 3.063e-115 2.840e-124 2.091e-164 1.309e-183 0.000e+00 0.000e+00
3073.9 940.0 6.327e-09 4.781e+04 9.413e+02 3.666e-08 6.813e-65 2.218e-108 1.867e-117 1.199e-126 1.435e-167 4.309e-187 0.000e+00 0.000e+00
3132.8 940.0 5.252e-09 3.982e+04 6.523e+02 1.773e-08 3.705e-66 1.964e-110 1.147e-119 5.106e-129 9.969e-171 1.437e-190 0.000e+00 0.000e+00
3191.6 940.0 4.363e-09 3.317e+04 4.524e+02 8.581e-09 2.024e-67 1.752e-112 7.110e-122 2.194e-131 7.008e-174 4.859e-194 0.000e+00 0.000e+00
3250.5 940.0 3.628e-09 2.764e+04 3.139e+02 4.159e-09 1.111e-68 1.575e-114 4.444e-124 9.516e-134 4.986e-177 1.664e-197 0.000e+00 0.000e+00
3309.3 940.0 3.018e-09 2.304e+04 2.179e+02 2.018e-09 6.132e-70 1.427e-116 2.801e-126 4.164e-136 3.590e-180 5.776e-201 0.000e+00 0.000e+00
3368.2 940.0 2.512e-09 1.921e+04 1.514e+02 9.805e-10 3.399e-71 1.303e-118 1.780e-128 1.838e-138 2.616e-183 2.031e-204 0.000e+00 0.000e+00
3427.1 940.0 2.093e-09 1.602e+04 1.052e+02 4.769e-10 1.893e-72 1.199e-120 1.141e-130 8.189e-141 1.929e-186 7.236e-208 0.000e+00 0.000e+00
3485.9 940.0 1.744e-09 1.337e+04 7.319e+01 2.322e-10 1.059e-73 1.112e-122 7.371e-133 3.681e-143 1.439e-189 2.612e-211 0.000e+00 0.000e+00
3544.8 940.0 1.454e-09 1.115e+04 5.094e+01 1.132e-10 5.956e-75 1.039e-124 4.803e-135 1.669e-145 1.087e-192 9.552e-215 0.000e+00 0.000e+00
3603.6 940.0 1.213e-09 9.311e+03 3.547e+01 5.528e-11 3.365e-76 9.790e-127 3.155e-137 7.636e-148 8.302e-196 3.539e-218 0.000e+00 0.000e+00
3662.5 940.0 1.012e-09 7.775e+03 2.471e+01 2.701e-11 1.910e-77 9.291e-129 2.090e-139 3.524e-150 6.418e-199 1.328e-221 0.000e+00 0.000e+00
3721.3 940.0 8.450e-10 6.494e+03 1.723e+01 1.322e-11 1.089e-78 8.884e-131 1.396e-141 1.641e-152 5.021e-202 5.050e-225 0.000e+00 0.000e+00
3780.2 940.0 7.057e-10 5.426e+03 1.202e+01 6.475e-12 6.241e-80 8.561e-133 9.401e-144 7.709e-155 3.974e-205 1.945e-228 0.000e+00 0.000e+00
3839.0 940.0 5.896e-10 4.535e+03 8.390e+00 3.176e-12 3.593e-81 8.313e-135 6.383e-146 3.654e-157 3.182e-208 7.589e-232 0.000e+00 0.000e+00
3897.9 940.0 4.928e-10 3.791e+03 5.860e+00 1.559e-12 2.078e-82 8.133e-137 4.369e-148 1.747e-159 2.578e-211 2.999e-235 0.000e+00 0.000e+00
3956.8 940.0 4.120e-10 3.170e+03 4.095e+00 7.665e-13 1.207e-83 8.017e-139 3.015e-150 8.424e-162 2.113e-214 1.201e-238 0.000e+00 0.000e+00
4015.6 940.0 3.446e-10 2.652e+03 2.863e+00 3.772e-13 7.048e-85 7.963e-141 2.098e-152 4.098e-164 1.752e-217 4.867e-242 0.000e+00 0.000e+00
4074.5 940.0 2.883e-10 2.219e+03 2.003e+00 1.859e-13 4.134e-86 7.969e-143 1.472e-154 2.011e-166 1.470e-220 1.999e-245 0.000e+00 0.000e+00
4133.3 940.0 2.412e-10 1.857e+03 1.402e+00 9.168e-14 2.436e-87 8.035e-145 1.041e-156 9.956e-169 1.247e-223 8.313e-249 0.000e+00 0.000e+00
4192.2 940.0 2.019e-10 1.555e+03 9.824e-01 4.528e-14 1.442e-88 8.163e-147 7.417e-159 4.971e-171 1.071e-226 3.502e-252 0.000e+00 0.000e+00
4251.0 940.0 1.691e-10 1.302e+03 6.885e-01 2.239e-14 8.573e-90 8.355e-149 5.330e-161 2.504e-173 9.299e-230 1.494e-255 0.000e+00 0.000e+00
4309.9 940.0 1.416e-10 1.091e+03 4.828e-01 1.108e-14 5.121e-91 8.615e-151 3.861e-163 1.272e-175 8.169e-233 6.453e-259 0.000e+00 0.000e+00
4368.7 940.0 1.187e-10 9.142e+02 3.388e-01 5.492e-15 3.074e-92 8.950e-153 2.820e-165 6.517e-178 7.258e-236 2.823e-262 0.000e+00 0.000e+00
4427.6 940.0 9.948e-11 7.663e+02 2.379e-01 2.725e-15 1.853e-93 9.367e-155 2.076e-167 3.368e-180 6.523e-239 1.251e-265 0.000e+00 0.000e+00
4486.5 940.0 8.340e-11 6.425e+02 1.671e-01 1.353e-15 1.122e-94 9.877e-157 1.540e-169 1.756e-182 5.930e-242 5.610e-269 0.000e+00 0.000e+00
4545.3 940.0 6.994e-11 5.388e+02 1.175e-01 6.729e-16 6.828e-96 1.049e-158 1.152e-171 9.229e-185 5.452e-245 2.548e-272 0.000e+00 0.000e+00
4604.2 940.0 5.867e-11 4.520e+02 8.260e-02 3.350e-16 4.173e-97 1.123e-160 8.683e-174 4.893e-187 5.070e-248 1.172e-275 0.000e+00 0.000e+00
4663.0 940.0 4.924e-11 3.793e+02 5.813e-02 1.669e-16 2.562e-98 1.210e-162 6.598e-176 2.617e-189 4.768e-251 5.458e-279 0.000e+00 0.000e+00
4721.9 940.0 4.133e-11 3.184e+02 4.093e-02 8.330e-17 1.580e-99 1.314e-164 5.053e-178 1.411e-191 4.535e-254 2.574e-282 0.000e+00 0.000e+00
4780.7 940.0 3.470e-11 2.673e+02 2.883e-02 4.161e-17 9.788e-101 1.437e-166 3.901e-180 7.673e-194 4.362e-257 1.229e-285 0.000e+00 0.000e+00
4839.6 940.0 2.914e-11 2.245e+02 2.032e-02 2.081e-17 6.091e-102 1.584e-168 3.035e-182 4.208e-196 4.243e-260 5.938e-289 0.000e+00 0.000e+00
4898.4 940.0 2.448e-11 1.886e+02 1.433e-02 1.042e-17 3.808e-103 1.758e-170 2.380e-184 2.327e-198 4.174e-263 2.906e-292 0.000e+00 0.000e+00
4957.3 940.0 2.057e-11 1.585e+02 1.012e-02 5.220e-18 2.391e-104 1.965e-172 1.881e-186 1.298e-200 4.152e-266 1.439e-295 0.000e+00 0.000e+00
5016.2 940.0 1.729e-11 1.332e+02 7.142e-03 2.619e-18 1.508e-105 2.213e-174 1.498e-188 7.300e-203 4.176e-269 7.219e-299 0.000e+00 0.000e+00
5075.0 940.0 1.454e-11 1.120e+02 5.046e-03 1.316e-18 9.552e-107 2.510e-176 1.203e-190 4.140e-205 4.248e-272 3.665e-302 0.000e+00 0.000e+00
5133.9 940.0 1.223e-11 9.422e+01 3.567e-03 6.616e-19 6.078e-108 2.868e-178 9.728e-193 2.367e-207 4.369e-275 1.883e-305 0.000e+00 0.000e+00
5192.7 940.0 1.029e-11 7.927e+01 2.523e-03 3.331e-19 3.885e-109 3.300e-180 7.931e-195 1.365e-209 4.543e-278 0.000e+00 0.000e+00 0.000e+00
5251.6 940.0 8.657e-12 6.671e+01 1.785e-03 1.678e-19 2.494e-110 3.825e-182 6.516e-197 7.936e-212 4.777e-281 0.000e+00 0.000e+00 0.000e+00
5310.4 940.0 7.287e-12 5.615e+01 1.264e-03 8.468e-20 1.608e-111 4.465e-184 5.395e-199 4.652e-214 5.078e-284 0.000e+00 0.000e+00 0.000e+00
5369.3 940.0 6.136e-12 4.728e+01 8.955e-04 4.277e-20 1.042e-112 5.249e-186 4.501e-201 2.750e-216 5.458e-287 0.000e+00 0.000e+00 0.000e+00
5428.1 940.0 5.167e-12 3.982e+01 6.348e-04 2.163e-20 6.776e-114 6.216e-188 3.785e-203 1.639e-218 5.931e-290 0.000e+00 0.000e+00 0.000e+00
5487.0 940.0 4.353e-12 3.354e+01 4.502e-04 1.095e-20 4.427e-115 7.412e-190 3.206e-205 9.848e-221 6.516e-293 0.000e+00 0.000e+00 0.000e+00
5545.9 940.0 3.668e-12 2.827e+01 3.195e-04 5.547e-21 2.905e-116 8.902e-192 2.737e-207 5.966e-223 7.237e-296 0.000e+00 0.000e+00 0.000e+00
5604.7 940.0 3.092e-12 2.383e+01 2.268e-04 2.814e-21 1.915e-117 1.077e-193 2.355e-209 3.644e-225 8.125e-299 0.000e+00 0.000e+00 0.000e+00
5663.6 940.0 2.607e-12 2.009e+01 1.611e-04 1.429e-21 1.267e-118 1.312e-195 2.041e-211 2.244e-227 9.222e-302 0.000e+00 0.000e+00 0.000e+00
5722.4 940.0 2.199e-12 1.694e+01 1.145e-04 7.265e-22 8.426e-120 1.609e-197 1.783e-213 1.393e-229 1.058e-304 0.000e+00 0.000e+00 0.000e+00
5781.3 940.0 1.855e-12 1.429e+01 8.145e-05 3.697e-22 5.626e-121 1.988e-199 1.569e-215 8.717e-232 1.227e-307 0.000e+00 0.000e+00 0.000e+00
5840.1 940.0 1.565e-12 1.206e+01 5.796e-05 1.884e-22 3.773e-122 2.473e-201 1.391e-217 5.500e-234 0.000e+00 0.000e+00 0.000e+00 0.000e+00
5899.0 940.0 1.321e-12 1.018e+01 4.126e-05 9.607e-23 2.541e-123 3.098e-203 1.243e-219 3.498e-236 0.000e+00 0.000e+00 0.000e+00 0.000e+00
